,Placement Depth (m),Received Power (W),Noise Power (W),Attenuation,meter_distance_per_waves
0,0.0,2.0119610527102368e-178,4.990125217502556e-16,1.0,0.0
1,2650.0,2.0119610527102368e-178,4.990125217502556e-16,0.000894535319011444,1155.476312824591
2,3170.0,2.0119610527102368e-178,4.990125217502556e-16,3.247227931914683e-05,225.27169364469216
3,3490.0,2.0119610527102368e-178,4.990125217502556e-16,1.0911730561641743e-05,133.10577701137504
4,3720.0,2.0119610527102368e-178,4.990125217502556e-16,5.426331871589909e-06,95.21951006636314
5,3900.0,2.0119610527102368e-178,4.990125217502556e-16,3.3908103881620893e-06,74.49223878629776
6,4050.0,2.0119610527102368e-178,4.990125217502556e-16,2.0417818028376444e-06,62.058520923431026
7,4180.0,2.0119610527102368e-178,4.990125217502556e-16,1.1826918908552946e-06,53.77057271176821
8,4290.0,2.0119610527102368e-178,4.990125217502556e-16,1.4022420501152799e-06,45.48840793127378
9,4390.0,2.0119610527102368e-178,4.990125217502556e-16,8.358389356363287e-07,41.3453320663903
10,4480.0,2.0119610527102368e-178,4.990125217502556e-16,6.947796549701372e-07,37.20447846576263
11,4560.0,2.0119610527102368e-178,4.990125217502556e-16,8.36984617962212e-07,33.06562320491153
12,4640.0,2.0119610527102368e-178,4.990125217502556e-16,2.003769112958007e-07,33.06089654535713
13,4710.0,2.0119610527102368e-178,4.990125217502556e-16,3.8621567783776854e-07,28.924408732341067
14,4780.0,2.0119610527102368e-178,4.990125217502556e-16,1.0723824450682952e-07,28.920792791750305
15,4840.0,2.0119610527102368e-178,4.990125217502556e-16,3.5608130496401324e-07,24.786373998557533
16,4900.0,2.0119610527102368e-178,4.990125217502556e-16,1.214258008237334e-07,24.78371923853783
17,4960.0,2.0119610527102368e-178,4.990125217502556e-16,3.8709572818025175e-08,24.78106533135463
18,5010.0,2.0119610527102368e-178,4.990125217502556e-16,2.640935549317871e-07,20.648861100883238
19,5060.0,2.0119610527102368e-178,4.990125217502556e-16,1.0888608599289153e-07,20.647019194755828
20,5110.0,2.0119610527102368e-178,4.990125217502556e-16,4.292832458359054e-08,20.645177781441994
21,5160.0,2.0119610527102368e-178,4.990125217502556e-16,1.6153078005714446e-08,20.643336860722027
22,5210.0,2.0119610527102368e-178,4.990125217502556e-16,5.789787931603127e-09,20.641496432376336
23,5250.0,2.0119610527102368e-178,4.990125217502556e-16,1.1873157829879328e-07,16.511872368227586
24,5290.0,2.0119610527102368e-178,4.990125217502556e-16,5.8033167101924094e-08,16.510695060951853
25,5330.0,2.0119610527102368e-178,4.990125217502556e-16,2.758957445494921e-08,16.50951800546855
26,5370.0,2.0119610527102368e-178,4.990125217502556e-16,1.2746346428645465e-08,16.50834120168793
27,5410.0,2.0119610527102368e-178,4.990125217502556e-16,5.717447426251224e-09,16.507164649520305
28,5450.0,2.0119610527102368e-178,4.990125217502556e-16,2.48764542082607e-09,16.505988348876024
29,5490.0,2.0119610527102368e-178,4.990125217502556e-16,1.0488874580661009e-09,16.504812299665478
30,5520.0,2.0119610527102368e-178,4.990125217502556e-16,1.0255697135668503e-07,12.377837593657285
31,5550.0,2.0119610527102368e-178,4.990125217502556e-16,6.109294213676639e-08,12.377176313362067
32,5580.0,2.0119610527102368e-178,4.990125217502556e-16,3.587399829276981e-08,12.376515139041315
33,5610.0,2.0119610527102368e-178,4.990125217502556e-16,2.0758151534278196e-08,12.375854070666728
34,5640.0,2.0119610527102368e-178,4.990125217502556e-16,1.1832391212629516e-08,12.375193108210013
35,5670.0,2.0119610527102368e-178,4.990125217502556e-16,6.6417666659252965e-09,12.374532251642888
36,5700.0,2.0119610527102368e-178,4.990125217502556e-16,3.6700480521870386e-09,12.373871500937089
37,5730.0,2.0119610527102368e-178,4.990125217502556e-16,1.9956491172139697e-09,12.373210856064347
38,5760.0,2.0119610527102368e-178,4.990125217502556e-16,1.06749441905883e-09,12.372550316996417
39,5790.0,2.0119610527102368e-178,4.990125217502556e-16,5.615108547237137e-10,12.371889883705059
40,5820.0,2.0119610527102368e-178,4.990125217502556e-16,2.903362966703726e-10,12.371229556162048
41,5850.0,2.0119610527102368e-178,4.990125217502556e-16,1.4751359391785707e-10,12.370569334339166
42,5880.0,2.0119610527102368e-178,4.990125217502556e-16,7.361809085741777e-11,12.369909218208202
43,5910.0,2.0119610527102368e-178,4.990125217502556e-16,3.607368069277644e-11,12.36924920774096
44,5940.0,2.0119610527102368e-178,4.990125217502556e-16,1.734916950959192e-11,12.368589302909257
45,5960.0,2.0119610527102368e-178,4.990125217502556e-16,4.42059614691689e-08,8.245359640297059
46,5980.0,2.0119610527102368e-178,4.990125217502556e-16,3.147785175137368e-08,8.245066427482046
47,6000.0,2.0119610527102368e-178,4.990125217502556e-16,2.2284039965954476e-08,8.244773245945588
48,6020.0,2.0119610527102368e-178,4.990125217502556e-16,1.5682373477768604e-08,8.244480095682121
49,6040.0,2.0119610527102368e-178,4.990125217502556e-16,1.0970406955386537e-08,8.244186976686091
50,6060.0,2.0119610527102368e-178,4.990125217502556e-16,7.627644882719717e-09,8.243893888951934
51,6080.0,2.0119610527102368e-178,4.990125217502556e-16,5.270821510883976e-09,8.243600832474097
52,6100.0,2.0119610527102368e-178,4.990125217502556e-16,3.6195055068656916e-09,8.243307807247021
53,6120.0,2.0119610527102368e-178,4.990125217502556e-16,2.469823207550114e-09,8.243014813265159
54,6140.0,2.0119610527102368e-178,4.990125217502556e-16,1.6745203309877938e-09,8.242721850522953
55,6160.0,2.0119610527102368e-178,4.990125217502556e-16,1.1279368525152494e-09,8.242428919014854
56,6180.0,2.0119610527102368e-178,4.990125217502556e-16,7.547627446054594e-10,8.242136018735312
57,6200.0,2.0119610527102368e-178,4.990125217502556e-16,5.016820534245357e-10,8.241843149678779
58,6220.0,2.0119610527102368e-178,4.990125217502556e-16,3.312072861752443e-10,8.241550311839706
59,6240.0,2.0119610527102368e-178,4.990125217502556e-16,2.171624838495475e-10,8.241257505212552
60,6260.0,2.0119610527102368e-178,4.990125217502556e-16,1.4139802524829707e-10,8.24096472979177
61,6280.0,2.0119610527102368e-178,4.990125217502556e-16,9.141872649400372e-11,8.240671985571817
62,6300.0,2.0119610527102368e-178,4.990125217502556e-16,5.868397876160616e-11,8.240379272547154
63,6320.0,2.0119610527102368e-178,4.990125217502556e-16,3.739860540251592e-11,8.240086590712236
64,6340.0,2.0119610527102368e-178,4.990125217502556e-16,2.3659266471537774e-11,8.239793940061531
65,6360.0,2.0119610527102368e-178,4.990125217502556e-16,1.4856459508714473e-11,8.239501320589497
66,6380.0,2.0119610527102368e-178,4.990125217502556e-16,9.258813758598375e-12,8.2392087322906
67,6400.0,2.0119610527102368e-178,4.990125217502556e-16,5.726361693532652e-12,8.238916175159305
68,6420.0,2.0119610527102368e-178,4.990125217502556e-16,3.5143309851639246e-12,8.238623649190078
69,6440.0,2.0119610527102368e-178,4.990125217502556e-16,2.1399503198826182e-12,8.238331154377391
70,6460.0,2.0119610527102368e-178,4.990125217502556e-16,1.292760816795783e-12,8.238038690715708
71,6480.0,2.0119610527102368e-178,4.990125217502556e-16,7.747151995029417e-13,8.237746258199508
72,6500.0,2.0119610527102368e-178,4.990125217502556e-16,4.605014054372178e-13,8.237453856823253
73,6520.0,2.0119610527102368e-178,4.990125217502556e-16,2.7148137699290994e-13,8.237161486581424
74,6540.0,2.0119610527102368e-178,4.990125217502556e-16,1.5871726617755035e-13,8.236869147468497
75,6560.0,2.0119610527102368e-178,4.990125217502556e-16,9.20105944922083e-14,8.236576839478941
76,6580.0,2.0119610527102368e-178,4.990125217502556e-16,5.288532182032136e-14,8.236284562607242
77,6600.0,2.0119610527102368e-178,4.990125217502556e-16,3.013490861565093e-14,8.235992316847877
78,6620.0,2.0119610527102368e-178,4.990125217502556e-16,1.7021405573216654e-14,8.235700102195326
79,6640.0,2.0119610527102368e-178,4.990125217502556e-16,9.529383804648504e-15,8.235407918644068
80,6660.0,2.0119610527102368e-178,4.990125217502556e-16,5.2872611935736626e-15,8.235115766188592
81,6680.0,2.0119610527102368e-178,4.990125217502556e-16,2.9070037778004166e-15,8.234823644823376
82,6700.0,2.0119610527102368e-178,4.990125217502556e-16,1.5836576342128969e-15,8.234531554542915
83,6720.0,2.0119610527102368e-178,4.990125217502556e-16,8.54731113420529e-16,8.234239495341686
84,6740.0,2.0119610527102368e-178,4.990125217502556e-16,4.56984569414321e-16,8.233947467214188
85,6760.0,2.0119610527102368e-178,4.990125217502556e-16,2.4200721968988346e-16,8.233655470154904
86,6770.0,2.0119610527102368e-178,4.990125217502556e-16,1.2220186274242722e-08,4.116718245887533
87,6780.0,2.0119610527102368e-178,4.990125217502556e-16,1.038682141030571e-08,4.116645258270798
88,6790.0,2.0119610527102368e-178,4.990125217502556e-16,8.81770174744067e-09,4.116572274536041
89,6800.0,2.0119610527102368e-178,4.990125217502556e-16,7.47640673017123e-09,4.116499294682917
90,6810.0,2.0119610527102368e-178,4.990125217502556e-16,6.331288018359182e-09,4.116426318711083
91,6820.0,2.0119610527102368e-178,4.990125217502556e-16,5.354879584308503e-09,4.116353346620196
92,6830.0,2.0119610527102368e-178,4.990125217502556e-16,4.523375875469412e-09,4.11628037840991
93,6840.0,2.0119610527102368e-178,4.990125217502556e-16,3.816170824464973e-09,4.1162074140798826
94,6850.0,2.0119610527102368e-178,4.990125217502556e-16,3.215451174452822e-09,4.116134453629768
95,6860.0,2.0119610527102368e-178,4.990125217502556e-16,2.705838218328799e-09,4.116061497059225
96,6870.0,2.0119610527102368e-178,4.990125217502556e-16,2.2740726282911016e-09,4.115988544367909
97,6880.0,2.0119610527102368e-178,4.990125217502556e-16,1.908737581324209e-09,4.115915595555474
98,6890.0,2.0119610527102368e-178,4.990125217502556e-16,1.600015869481935e-09,4.115842650621578
99,6900.0,2.0119610527102368e-178,4.990125217502556e-16,1.3394771245769001e-09,4.115769709565878
100,6910.0,2.0119610527102368e-178,4.990125217502556e-16,1.1198916881060474e-09,4.11569677238803
101,6920.0,2.0119610527102368e-178,4.990125217502556e-16,9.3506802180423e-10,4.1156238390876885
102,6930.0,2.0119610527102368e-178,4.990125217502556e-16,7.797108849054347e-10,4.115550909664512
103,6940.0,2.0119610527102368e-178,4.990125217502556e-16,6.492978036091842e-10,4.115477984118158
104,6950.0,2.0119610527102368e-178,4.990125217502556e-16,5.399716288826595e-10,4.11540506244828
105,6960.0,2.0119610527102368e-178,4.990125217502556e-16,4.4844722290068135e-10,4.115332144654536
106,6970.0,2.0119610527102368e-178,4.990125217502556e-16,3.7193053434868944e-10,4.115259230736584
107,6980.0,2.0119610527102368e-178,4.990125217502556e-16,3.080485205357828e-10,4.115186320694079
108,6990.0,2.0119610527102368e-178,4.990125217502556e-16,2.547885517201943e-10,4.115113414526678
109,7000.0,2.0119610527102368e-178,4.990125217502556e-16,2.1044609203485189e-10,4.115040512234037
110,7010.0,2.0119610527102368e-178,4.990125217502556e-16,1.735795935852852e-10,4.114967613815813
111,7020.0,2.0119610527102368e-178,4.990125217502556e-16,1.4297166723209115e-10,4.114894719271666
112,7030.0,2.0119610527102368e-178,4.990125217502556e-16,1.175957066971508e-10,4.114821828601248
113,7040.0,2.0119610527102368e-178,4.990125217502556e-16,9.658724327577915e-11,4.11474894180422
114,7050.0,2.0119610527102368e-178,4.990125217502556e-16,7.921939781395712e-11,4.114676058880235
115,7060.0,2.0119610527102368e-178,4.990125217502556e-16,6.488187584481346e-11,4.114603179828954
116,7070.0,2.0119610527102368e-178,4.990125217502556e-16,5.306302189566703e-11,4.1145303046500326
117,7080.0,2.0119610527102368e-178,4.990125217502556e-16,4.333451092012856e-11,4.1144574333431265
118,7090.0,2.0119610527102368e-178,4.990125217502556e-16,3.533830943224048e-11,4.114384565907894
119,7100.0,2.0119610527102368e-178,4.990125217502556e-16,2.8775587003331617e-11,4.114311702343993
120,7110.0,2.0119610527102368e-178,4.990125217502556e-16,2.3397301034944265e-11,4.114238842651079
121,7120.0,2.0119610527102368e-178,4.990125217502556e-16,1.8996214784254005e-11,4.1141659868288105
122,7130.0,2.0119610527102368e-178,4.990125217502556e-16,1.5400141071517296e-11,4.114093134876844
123,7140.0,2.0119610527102368e-178,4.990125217502556e-16,1.2466232465793971e-11,4.114020286794837
124,7150.0,2.0119610527102368e-178,4.990125217502556e-16,1.0076163495560376e-11,4.113947442582448
125,7160.0,2.0119610527102368e-178,4.990125217502556e-16,8.13207198768685e-12,4.113874602239333
126,7170.0,2.0119610527102368e-178,4.990125217502556e-16,6.5531453802476e-12,4.113801765765151
127,7180.0,2.0119610527102368e-178,4.990125217502556e-16,5.2727541201444725e-12,4.113728933159557
128,7190.0,2.0119610527102368e-178,4.990125217502556e-16,4.236048347581949e-12,4.113656104422211
129,7200.0,2.0119610527102368e-178,4.990125217502556e-16,3.3979462548480146e-12,4.11358327955277
130,7210.0,2.0119610527102368e-178,4.990125217502556e-16,2.7214530254658586e-12,4.113510458550891
131,7220.0,2.0119610527102368e-178,4.990125217502556e-16,2.1762583231263387e-12,4.113437641416232
132,7230.0,2.0119610527102368e-178,4.990125217502556e-16,1.7375680952778623e-12,4.113364828148452
133,7240.0,2.0119610527102368e-178,4.990125217502556e-16,1.3851331489733737e-12,4.113292018747206
134,7250.0,2.0119610527102368e-178,4.990125217502556e-16,1.102442692187623e-12,4.113219213212153
135,7260.0,2.0119610527102368e-178,4.990125217502556e-16,8.760559402358282e-13,4.113146411542951
136,7270.0,2.0119610527102368e-178,4.990125217502556e-16,6.95049076395322e-13,4.11307361373926
137,7280.0,2.0119610527102368e-178,4.990125217502556e-16,5.505584265649234e-13,4.113000819800735
138,7290.0,2.0119610527102368e-178,4.990125217502556e-16,4.354037456157401e-13,4.112928029727035
139,7300.0,2.0119610527102368e-178,4.990125217502556e-16,3.437780927645789e-13,4.112855243517818
140,7310.0,2.0119610527102368e-178,4.990125217502556e-16,2.7099295991013757e-13,4.112782461172743
141,7320.0,2.0119610527102368e-178,4.990125217502556e-16,2.1326916687009345e-13,4.112709682691467
142,7330.0,2.0119610527102368e-178,4.990125217502556e-16,1.6756559976879325e-13,4.112636908073647
143,7340.0,2.0119610527102368e-178,4.990125217502556e-16,1.314391857375396e-13,4.112564137318943
144,7350.0,2.0119610527102368e-178,4.990125217502556e-16,1.0293060507711695e-13,4.112491370427013
145,7360.0,2.0119610527102368e-178,4.990125217502556e-16,8.0471172498581e-14,4.112418607397516
146,7370.0,2.0119610527102368e-178,4.990125217502556e-16,6.280709898480827e-14,4.112345848230109
147,7380.0,2.0119610527102368e-178,4.990125217502556e-16,4.893799832402517e-14,4.1122730929244495
148,7390.0,2.0119610527102368e-178,4.990125217502556e-16,3.8067047246528225e-14,4.1122003414801975
149,7400.0,2.0119610527102368e-178,4.990125217502556e-16,2.956066223994057e-14,4.112127593897012
150,7410.0,2.0119610527102368e-178,4.990125217502556e-16,2.291593391571435e-14,4.11205485017455
151,7420.0,2.0119610527102368e-178,4.990125217502556e-16,1.773437348880335e-14,4.111982110312471
152,7430.0,2.0119610527102368e-178,4.990125217502556e-16,1.3700785893136719e-14,4.111909374310432
153,7440.0,2.0119610527102368e-178,4.990125217502556e-16,1.0566299077950181e-14,4.111836642168095
154,7450.0,2.0119610527102368e-178,4.990125217502556e-16,8.13475654059096e-15,4.111763913885115
155,7460.0,2.0119610527102368e-178,4.990125217502556e-16,6.251826411604981e-15,4.111691189461151
156,7470.0,2.0119610527102368e-178,4.990125217502556e-16,4.7963006860125686e-15,4.111618468895865
157,7480.0,2.0119610527102368e-178,4.990125217502556e-16,3.67315691435298e-15,4.111545752188913
158,7490.0,2.0119610527102368e-178,4.990125217502556e-16,2.8080355344702095e-15,4.111473039339955
159,7500.0,2.0119610527102368e-178,4.990125217502556e-16,2.1428521391291036e-15,4.111400330348649
160,7510.0,2.0119610527102368e-178,4.990125217502556e-16,1.632317920894367e-15,4.111327625214653
161,7520.0,2.0119610527102368e-178,4.990125217502556e-16,1.2411854671038303e-15,4.1112549239376275
162,7530.0,2.0119610527102368e-178,4.990125217502556e-16,9.420727828115681e-16,4.111182226517233
163,7540.0,2.0119610527102368e-178,4.990125217502556e-16,7.137473812070015e-16,4.111109532953126
164,7550.0,2.0119610527102368e-178,4.990125217502556e-16,5.397757261594195e-16,4.111036843244965
165,7560.0,2.0119610527102368e-178,4.990125217502556e-16,4.0746225307517373e-16,4.110964157392411
166,7570.0,2.0119610527102368e-178,4.990125217502556e-16,3.0701746668546465e-16,4.110891475395125
167,7580.0,2.0119610527102368e-178,4.990125217502556e-16,2.3090690371005214e-16,4.110818797252762
168,7590.0,2.0119610527102368e-178,4.990125217502556e-16,1.733426173168126e-16,4.110746122964982
169,7600.0,2.0119610527102368e-178,4.990125217502556e-16,1.2988674958648335e-16,4.110673452531447
170,7610.0,2.0119610527102368e-178,4.990125217502556e-16,9.714308406901938e-17,4.110600785951814
171,7620.0,2.0119610527102368e-178,4.990125217502556e-16,7.251751967912429e-17,4.110528123225743
172,7630.0,2.0119610527102368e-178,4.990125217502556e-16,5.4032429067058766e-17,4.110455464352893
173,7640.0,2.0119610527102368e-178,4.990125217502556e-16,4.0183061651129944e-17,4.110382809332925
174,7650.0,2.0119610527102368e-178,4.990125217502556e-16,2.9826687650091e-17,4.110310158165498
175,7660.0,2.0119610527102368e-178,4.990125217502556e-16,2.2097187176490958e-17,4.11023751085027
176,7670.0,2.0119610527102368e-178,4.990125217502556e-16,1.633937455779338e-17,4.110164867386902
177,7680.0,2.0119610527102368e-178,4.990125217502556e-16,1.2058598476187585e-17,4.110092227775052
178,7690.0,2.0119610527102368e-178,4.990125217502556e-16,8.882142248253206e-18,4.110019592014383
179,7700.0,2.0119610527102368e-178,4.990125217502556e-16,6.529720864789661e-18,4.10994696010455
180,7710.0,2.0119610527102368e-178,4.990125217502556e-16,4.790976448488426e-18,4.109874332045217
181,7720.0,2.0119610527102368e-178,4.990125217502556e-16,3.508346789625591e-18,4.109801707836042
182,7730.0,2.0119610527102368e-178,4.990125217502556e-16,2.564050619439724e-18,4.109729087476685
183,7740.0,2.0119610527102368e-178,4.990125217502556e-16,1.8702205349312007e-18,4.109656470966806
184,7750.0,2.0119610527102368e-178,4.990125217502556e-16,1.3614376309776893e-18,4.109583858306064
185,7760.0,2.0119610527102368e-178,4.990125217502556e-16,9.89094864882811e-19,4.109511249494121
186,7770.0,2.0119610527102368e-178,4.990125217502556e-16,7.171499688192789e-19,4.109438644530634
187,7780.0,2.0119610527102368e-178,4.990125217502556e-16,5.189319889946872e-19,4.109366043415267
188,7790.0,2.0119610527102368e-178,4.990125217502556e-16,3.7474506020580367e-19,4.109293446147676
189,7800.0,2.0119610527102368e-178,4.990125217502556e-16,2.7007414304575493e-19,4.109220852727523
190,7810.0,2.0119610527102368e-178,4.990125217502556e-16,1.9424431861298266e-19,4.109148263154469
191,7820.0,2.0119610527102368e-178,4.990125217502556e-16,1.3942109678107367e-19,4.109075677428174
192,7830.0,2.0119610527102368e-178,4.990125217502556e-16,9.986657368555699e-20,4.109003095548297
193,7840.0,2.0119610527102368e-178,4.990125217502556e-16,7.138713223869936e-20,4.108930517514499
194,7850.0,2.0119610527102368e-178,4.990125217502556e-16,5.0924234559665415e-20,4.1088579433264405
195,7860.0,2.0119610527102368e-178,4.990125217502556e-16,3.6251880652287865e-20,4.108785372983781
196,7870.0,2.0119610527102368e-178,4.990125217502556e-16,2.575340828937689e-20,4.108712806486182
197,7880.0,2.0119610527102368e-178,4.990125217502556e-16,1.8257180943587016e-20,4.108640243833304
198,7890.0,2.0119610527102368e-178,4.990125217502556e-16,1.2915887995533963e-20,4.1085676850248065
199,7900.0,2.0119610527102368e-178,4.990125217502556e-16,9.11807346258423e-21,4.108495130060351
200,7910.0,2.0119610527102368e-178,4.990125217502556e-16,6.4234286809837675e-21,4.1084225789395985
201,7920.0,2.0119610527102368e-178,4.990125217502556e-16,4.515568974675662e-21,4.108350031662208
202,7930.0,2.0119610527102368e-178,4.990125217502556e-16,3.1676455182616864e-21,4.10827748822784
203,7940.0,2.0119610527102368e-178,4.990125217502556e-16,2.2173587915499932e-21,4.108204948636159
204,7950.0,2.0119610527102368e-178,4.990125217502556e-16,1.548843257211228e-21,4.10813241288682
